#40Ar_n

#

#R = radius in fm
#RHORP = neutron density in 1/fm**3
#DRHORP = Monte Carlo error (1 sigma)

#Normalization
#4*PI*TOTINT(RHORP*R**2:R) =  N

#rms radii
#
 
#   R      RHORP    DRHORP
# *****  ********  ********
0.000000 0.116992  0.0
0.050000 0.116992  0.0
0.059960 0.116965  0.0
0.069920 0.116922  0.0
0.079880 0.116883  0.0
0.089840 0.116828  0.0
0.099800 0.116778  0.0
0.109760 0.116712  0.0
0.119720 0.116650  0.0
0.129680 0.116572  0.0
0.139640 0.116499  0.0
0.149600 0.116410  0.0
0.159560 0.116326  0.0
0.169520 0.116226  0.0
0.179479 0.116131  0.0
0.189439 0.116020  0.0
0.199399 0.115914  0.0
0.209359 0.115793  0.0
0.219319 0.115675  0.0
0.229279 0.115544  0.0
0.239239 0.115416  0.0
0.249199 0.115274  0.0
0.259159 0.115136  0.0
0.269119 0.114984  0.0
0.279079 0.114836  0.0
0.289039 0.114675  0.0
0.298999 0.114517  0.0
0.308959 0.114346  0.0
0.318919 0.114179  0.0
0.328879 0.113999  0.0
0.338839 0.113822  0.0
0.348799 0.113633  0.0
0.358759 0.113448  0.0
0.368719 0.113251  0.0
0.378679 0.113057  0.0
0.388639 0.112851  0.0
0.398599 0.112649  0.0
0.408559 0.112436  0.0
0.418519 0.112225  0.0
0.428478 0.112005  0.0
0.438438 0.111787  0.0
0.448398 0.111559  0.0
0.458358 0.111335  0.0
0.468318 0.111100  0.0
0.478278 0.110869  0.0
0.488238 0.110628  0.0
0.498198 0.110390  0.0
0.508158 0.110143  0.0
0.518118 0.109900  0.0
0.528078 0.109647  0.0
0.538038 0.109398  0.0
0.547998 0.109141  0.0
0.557958 0.108886  0.0
0.567918 0.108625  0.0
0.577878 0.108365  0.0
0.587838 0.108099  0.0
0.597798 0.107836  0.0
0.607758 0.107566  0.0
0.617718 0.107299  0.0
0.627678 0.107026  0.0
0.637638 0.106756  0.0
0.647598 0.106479  0.0
0.657558 0.106206  0.0
0.667518 0.105927  0.0
0.677477 0.105652  0.0
0.687437 0.105371  0.0
0.697397 0.105093  0.0
0.707357 0.104811  0.0
0.717317 0.104532  0.0
0.727277 0.104248  0.0
0.737237 0.103968  0.0
0.747197 0.103684  0.0
0.757157 0.103403  0.0
0.767117 0.103119  0.0
0.777077 0.102837  0.0
0.787037 0.102553  0.0
0.796997 0.102272  0.0
0.806957 0.101989  0.0
0.816917 0.101708  0.0
0.826877 0.101426  0.0
0.836837 0.101147  0.0
0.846797 0.100865  0.0
0.856757 0.100588  0.0
0.866717 0.100309  0.0
0.876677 0.100033  0.0
0.886637 0.099756  0.0
0.896597 0.099482  0.0
0.906557 0.099208  0.0
0.916517 0.098937  0.0
0.926476 0.098666  0.0
0.936436 0.098399  0.0
0.946396 0.098131  0.0
0.956356 0.097867  0.0
0.966316 0.097603  0.0
0.976276 0.097342  0.0
0.986236 0.097083  0.0
0.996196 0.096826  0.0
1.006156 0.096571  0.0
1.016116 0.096320  0.0
1.026076 0.096069  0.0
1.036036 0.095822  0.0
1.045996 0.095577  0.0
1.055956 0.095335  0.0
1.065916 0.095095  0.0
1.075876 0.094859  0.0
1.085836 0.094625  0.0
1.095796 0.094395  0.0
1.105756 0.094167  0.0
1.115716 0.093942  0.0
1.125676 0.093720  0.0
1.135636 0.093502  0.0
1.145596 0.093287  0.0
1.155556 0.093075  0.0
1.165516 0.092866  0.0
1.175475 0.092661  0.0
1.185435 0.092459  0.0
1.195395 0.092261  0.0
1.205355 0.092066  0.0
1.215315 0.091875  0.0
1.225275 0.091687  0.0
1.235235 0.091504  0.0
1.245195 0.091323  0.0
1.255155 0.091147  0.0
1.265115 0.090974  0.0
1.275075 0.090805  0.0
1.285035 0.090640  0.0
1.294995 0.090478  0.0
1.304955 0.090320  0.0
1.314915 0.090167  0.0
1.324875 0.090017  0.0
1.334835 0.089871  0.0
1.344795 0.089728  0.0
1.354755 0.089590  0.0
1.364715 0.089456  0.0
1.374675 0.089325  0.0
1.384635 0.089198  0.0
1.394595 0.089075  0.0
1.404555 0.088957  0.0
1.414515 0.088841  0.0
1.424474 0.088730  0.0
1.434434 0.088623  0.0
1.444394 0.088519  0.0
1.454354 0.088419  0.0
1.464314 0.088324  0.0
1.474274 0.088231  0.0
1.484234 0.088143  0.0
1.494194 0.088058  0.0
1.504154 0.087977  0.0
1.514114 0.087899  0.0
1.524074 0.087826  0.0
1.534034 0.087755  0.0
1.543994 0.087689  0.0
1.553954 0.087625  0.0
1.563914 0.087566  0.0
1.573874 0.087509  0.0
1.583834 0.087456  0.0
1.593794 0.087406  0.0
1.603754 0.087360  0.0
1.613714 0.087316  0.0
1.623674 0.087276  0.0
1.633634 0.087238  0.0
1.643594 0.087205  0.0
1.653554 0.087172  0.0
1.663514 0.087145  0.0
1.673473 0.087118  0.0
1.683433 0.087096  0.0
1.693393 0.087075  0.0
1.703353 0.087059  0.0
1.713313 0.087043  0.0
1.723273 0.087031  0.0
1.733233 0.087020  0.0
1.743193 0.087013  0.0
1.753153 0.087006  0.0
1.763113 0.087003  0.0
1.773073 0.087000  0.0
1.783033 0.087002  0.0
1.792993 0.087003  0.0
1.802953 0.087008  0.0
1.812913 0.087012  0.0
1.822873 0.087021  0.0
1.832833 0.087028  0.0
1.842793 0.087040  0.0
1.852753 0.087050  0.0
1.862713 0.087064  0.0
1.872673 0.087076  0.0
1.882633 0.087093  0.0
1.892593 0.087107  0.0
1.902553 0.087125  0.0
1.912513 0.087141  0.0
1.922472 0.087160  0.0
1.932432 0.087177  0.0
1.942392 0.087198  0.0
1.952352 0.087215  0.0
1.962312 0.087236  0.0
1.972272 0.087254  0.0
1.982232 0.087276  0.0
1.992192 0.087293  0.0
2.002152 0.087314  0.0
2.012112 0.087331  0.0
2.022072 0.087352  0.0
2.032032 0.087368  0.0
2.041992 0.087388  0.0
2.051952 0.087402  0.0
2.061912 0.087420  0.0
2.071872 0.087433  0.0
2.081832 0.087449  0.0
2.091792 0.087460  0.0
2.101752 0.087474  0.0
2.111712 0.087482  0.0
2.121672 0.087493  0.0
2.131632 0.087498  0.0
2.141592 0.087506  0.0
2.151552 0.087507  0.0
2.161512 0.087512  0.0
2.171471 0.087510  0.0
2.181431 0.087510  0.0
2.191391 0.087504  0.0
2.201351 0.087500  0.0
2.211311 0.087489  0.0
2.221271 0.087481  0.0
2.231231 0.087464  0.0
2.241191 0.087451  0.0
2.251151 0.087429  0.0
2.261111 0.087410  0.0
2.271071 0.087383  0.0
2.281031 0.087358  0.0
2.290991 0.087324  0.0
2.300951 0.087294  0.0
2.310911 0.087254  0.0
2.320871 0.087216  0.0
2.330831 0.087169  0.0
2.340791 0.087126  0.0
2.350751 0.087071  0.0
2.360711 0.087020  0.0
2.370671 0.086959  0.0
2.380631 0.086900  0.0
2.390591 0.086831  0.0
2.400551 0.086765  0.0
2.410511 0.086687  0.0
2.420470 0.086613  0.0
2.430430 0.086528  0.0
2.440390 0.086445  0.0
2.450350 0.086351  0.0
2.460310 0.086260  0.0
2.470270 0.086158  0.0
2.480230 0.086058  0.0
2.490190 0.085946  0.0
2.500150 0.085838  0.0
2.510110 0.085716  0.0
2.520070 0.085599  0.0
2.530030 0.085468  0.0
2.539990 0.085341  0.0
2.549950 0.085201  0.0
2.559910 0.085065  0.0
2.569870 0.084915  0.0
2.579830 0.084769  0.0
2.589790 0.084610  0.0
2.599750 0.084454  0.0
2.609710 0.084284  0.0
2.619670 0.084118  0.0
2.629630 0.083939  0.0
2.639590 0.083763  0.0
2.649550 0.083574  0.0
2.659510 0.083387  0.0
2.669469 0.083189  0.0
2.679429 0.082992  0.0
2.689389 0.082783  0.0
2.699349 0.082576  0.0
2.709309 0.082356  0.0
2.719269 0.082139  0.0
2.729229 0.081910  0.0
2.739189 0.081682  0.0
2.749149 0.081443  0.0
2.759109 0.081205  0.0
2.769069 0.080955  0.0
2.779029 0.080707  0.0
2.788989 0.080448  0.0
2.798949 0.080189  0.0
2.808909 0.079920  0.0
2.818869 0.079651  0.0
2.828829 0.079372  0.0
2.838789 0.079093  0.0
2.848749 0.078804  0.0
2.858709 0.078515  0.0
2.868669 0.078216  0.0
2.878629 0.077918  0.0
2.888589 0.077609  0.0
2.898549 0.077301  0.0
2.908509 0.076983  0.0
2.918468 0.076666  0.0
2.928428 0.076338  0.0
2.938388 0.076011  0.0
2.948348 0.075675  0.0
2.958308 0.075339  0.0
2.968268 0.074994  0.0
2.978228 0.074649  0.0
2.988188 0.074295  0.0
2.998148 0.073941  0.0
3.008108 0.073578  0.0
3.018068 0.073216  0.0
3.028028 0.072845  0.0
3.037988 0.072475  0.0
3.047948 0.072096  0.0
3.057908 0.071717  0.0
3.067868 0.071331  0.0
3.077828 0.070944  0.0
3.087788 0.070550  0.0
3.097748 0.070156  0.0
3.107708 0.069755  0.0
3.117668 0.069354  0.0
3.127628 0.068946  0.0
3.137588 0.068537  0.0
3.147548 0.068123  0.0
3.157508 0.067708  0.0
3.167467 0.067287  0.0
3.177427 0.066866  0.0
3.187387 0.066439  0.0
3.197347 0.066012  0.0
3.207307 0.065579  0.0
3.217267 0.065146  0.0
3.227227 0.064708  0.0
3.237187 0.064270  0.0
3.247147 0.063827  0.0
3.257107 0.063384  0.0
3.267067 0.062936  0.0
3.277027 0.062488  0.0
3.286987 0.062036  0.0
3.296947 0.061584  0.0
3.306907 0.061128  0.0
3.316867 0.060672  0.0
3.326827 0.060212  0.0
3.336787 0.059752  0.0
3.346747 0.059290  0.0
3.356707 0.058827  0.0
3.366667 0.058361  0.0
3.376627 0.057895  0.0
3.386587 0.057427  0.0
3.396547 0.056958  0.0
3.406507 0.056488  0.0
3.416466 0.056017  0.0
3.426426 0.055545  0.0
3.436386 0.055072  0.0
3.446346 0.054598  0.0
3.456306 0.054124  0.0
3.466266 0.053649  0.0
3.476226 0.053174  0.0
3.486186 0.052698  0.0
3.496146 0.052223  0.0
3.506106 0.051746  0.0
3.516066 0.051270  0.0
3.526026 0.050794  0.0
3.535986 0.050318  0.0
3.545946 0.049841  0.0
3.555906 0.049366  0.0
3.565866 0.048890  0.0
3.575826 0.048415  0.0
3.585786 0.047940  0.0
3.595746 0.047466  0.0
3.605706 0.046992  0.0
3.615666 0.046519  0.0
3.625626 0.046047  0.0
3.635586 0.045576  0.0
3.645546 0.045105  0.0
3.655506 0.044636  0.0
3.665465 0.044168  0.0
3.675425 0.043701  0.0
3.685385 0.043235  0.0
3.695345 0.042770  0.0
3.705305 0.042307  0.0
3.715265 0.041845  0.0
3.725225 0.041385  0.0
3.735185 0.040926  0.0
3.745145 0.040469  0.0
3.755105 0.040014  0.0
3.765065 0.039560  0.0
3.775025 0.039108  0.0
3.784985 0.038659  0.0
3.794945 0.038211  0.0
3.804905 0.037765  0.0
3.814865 0.037321  0.0
3.824825 0.036880  0.0
3.834785 0.036440  0.0
3.844745 0.036003  0.0
3.854705 0.035568  0.0
3.864665 0.035135  0.0
3.874625 0.034705  0.0
3.884585 0.034277  0.0
3.894545 0.033852  0.0
3.904505 0.033429  0.0
3.914464 0.033009  0.0
3.924424 0.032592  0.0
3.934384 0.032177  0.0
3.944344 0.031765  0.0
3.954304 0.031356  0.0
3.964264 0.030949  0.0
3.974224 0.030545  0.0
3.984184 0.030144  0.0
3.994144 0.029746  0.0
4.004104 0.029351  0.0
4.014064 0.028959  0.0
4.024024 0.028570  0.0
4.033984 0.028184  0.0
4.043944 0.027801  0.0
4.053904 0.027421  0.0
4.063864 0.027044  0.0
4.073824 0.026670  0.0
4.083784 0.026299  0.0
4.093744 0.025932  0.0
4.103704 0.025568  0.0
4.113664 0.025207  0.0
4.123624 0.024849  0.0
4.133584 0.024494  0.0
4.143544 0.024143  0.0
4.153504 0.023795  0.0
4.163463 0.023450  0.0
4.173423 0.023108  0.0
4.183383 0.022770  0.0
4.193343 0.022435  0.0
4.203303 0.022103  0.0
4.213263 0.021775  0.0
4.223223 0.021450  0.0
4.233183 0.021129  0.0
4.243143 0.020810  0.0
4.253103 0.020495  0.0
4.263063 0.020184  0.0
4.273023 0.019875  0.0
4.282983 0.019570  0.0
4.292943 0.019269  0.0
4.302903 0.018971  0.0
4.312863 0.018676  0.0
4.322823 0.018384  0.0
4.332783 0.018096  0.0
4.342743 0.017811  0.0
4.352703 0.017529  0.0
4.362663 0.017251  0.0
4.372623 0.016976  0.0
4.382583 0.016704  0.0
4.392543 0.016436  0.0
4.402503 0.016170  0.0
4.412462 0.015909  0.0
4.422422 0.015650  0.0
4.432382 0.015394  0.0
4.442342 0.015142  0.0
4.452302 0.014893  0.0
4.462262 0.014647  0.0
4.472222 0.014404  0.0
4.482182 0.014164  0.0
4.492142 0.013928  0.0
4.502102 0.013695  0.0
4.512062 0.013465  0.0
4.522022 0.013237  0.0
4.531982 0.013013  0.0
4.541942 0.012792  0.0
4.551902 0.012574  0.0
4.561862 0.012359  0.0
4.571822 0.012147  0.0
4.581782 0.011938  0.0
4.591742 0.011732  0.0
4.601702 0.011528  0.0
4.611662 0.011328  0.0
4.621622 0.011131  0.0
4.631582 0.010936  0.0
4.641542 0.010744  0.0
4.651502 0.010556  0.0
4.661461 0.010369  0.0
4.671421 0.010186  0.0
4.681381 0.010005  0.0
4.691341 0.009827  0.0
4.701301 0.009651  0.0
4.711261 0.009479  0.0
4.721221 0.009308  0.0
4.731181 0.009141  0.0
4.741141 0.008976  0.0
4.751101 0.008814  0.0
4.761061 0.008653  0.0
4.771021 0.008496  0.0
4.780981 0.008341  0.0
4.790941 0.008189  0.0
4.800901 0.008038  0.0
4.810861 0.007891  0.0
4.820821 0.007745  0.0
4.830781 0.007603  0.0
4.840741 0.007462  0.0
4.850701 0.007323  0.0
4.860661 0.007187  0.0
4.870621 0.007053  0.0
4.880581 0.006921  0.0
4.890541 0.006792  0.0
4.900501 0.006664  0.0
4.910460 0.006539  0.0
4.920420 0.006416  0.0
4.930380 0.006295  0.0
4.940340 0.006175  0.0
4.950300 0.006059  0.0
4.960260 0.005943  0.0
4.970220 0.005830  0.0
4.980180 0.005719  0.0
4.990140 0.005610  0.0
5.000100 0.005502  0.0
5.010060 0.005397  0.0
5.020020 0.005293  0.0
5.029980 0.005191  0.0
5.039940 0.005090  0.0
5.049900 0.004992  0.0
5.059860 0.004895  0.0
5.069820 0.004801  0.0
5.079780 0.004707  0.0
5.089740 0.004616  0.0
5.099700 0.004526  0.0
5.109660 0.004437  0.0
5.119620 0.004350  0.0
5.129580 0.004265  0.0
5.139540 0.004181  0.0
5.149499 0.004100  0.0
5.159459 0.004019  0.0
5.169419 0.003940  0.0
5.179379 0.003862  0.0
5.189339 0.003786  0.0
5.199299 0.003710  0.0
5.209259 0.003637  0.0
5.219219 0.003565  0.0
5.229179 0.003494  0.0
5.239139 0.003424  0.0
5.249099 0.003356  0.0
5.259059 0.003289  0.0
5.269019 0.003223  0.0
5.278979 0.003159  0.0
5.288939 0.003096  0.0
5.298899 0.003033  0.0
5.308859 0.002973  0.0
5.318819 0.002913  0.0
5.328779 0.002854  0.0
5.338739 0.002796  0.0
5.348699 0.002740  0.0
5.358659 0.002685  0.0
5.368619 0.002631  0.0
5.378579 0.002577  0.0
5.388539 0.002525  0.0
5.398498 0.002474  0.0
5.408458 0.002424  0.0
5.418418 0.002374  0.0
5.428378 0.002326  0.0
5.438338 0.002279  0.0
5.448298 0.002232  0.0
5.458258 0.002187  0.0
5.468218 0.002142  0.0
5.478178 0.002098  0.0
5.488138 0.002055  0.0
5.498098 0.002013  0.0
5.508058 0.001972  0.0
5.518018 0.001932  0.0
5.527978 0.001892  0.0
5.537938 0.001853  0.0
5.547898 0.001815  0.0
5.557858 0.001778  0.0
5.567818 0.001741  0.0
5.577778 0.001705  0.0
5.587738 0.001670  0.0
5.597698 0.001636  0.0
5.607658 0.001602  0.0
5.617618 0.001569  0.0
5.627578 0.001536  0.0
5.637538 0.001505  0.0
5.647497 0.001473  0.0
5.657457 0.001443  0.0
5.667417 0.001413  0.0
5.677377 0.001384  0.0
5.687337 0.001355  0.0
5.697297 0.001327  0.0
5.707257 0.001299  0.0
5.717217 0.001272  0.0
5.727177 0.001246  0.0
5.737137 0.001220  0.0
5.747097 0.001195  0.0
5.757057 0.001170  0.0
5.767017 0.001145  0.0
5.776977 0.001122  0.0
5.786937 0.001098  0.0
5.796897 0.001075  0.0
5.806857 0.001053  0.0
5.816817 0.001031  0.0
5.826777 0.001009  0.0
5.836737 0.000988  0.0
5.846697 0.000968  0.0
5.856657 0.000947  0.0
5.866617 0.000928  0.0
5.876577 0.000908  0.0
5.886537 0.000889  0.0
5.896496 0.000871  0.0
5.906456 0.000852  0.0
5.916416 0.000835  0.0
5.926376 0.000817  0.0
5.936336 0.000800  0.0
5.946296 0.000783  0.0
5.956256 0.000767  0.0
5.966216 0.000751  0.0
5.976176 0.000735  0.0
5.986136 0.000720  0.0
5.996096 0.000704  0.0
6.006056 0.000690  0.0
6.016016 0.000675  0.0
6.025976 0.000661  0.0
6.035936 0.000647  0.0
6.045896 0.000634  0.0
6.055856 0.000620  0.0
6.065816 0.000607  0.0
6.075776 0.000594  0.0
6.085736 0.000582  0.0
6.095696 0.000570  0.0
6.105656 0.000558  0.0
6.115616 0.000546  0.0
6.125576 0.000535  0.0
6.135536 0.000523  0.0
6.145495 0.000512  0.0
6.155455 0.000502  0.0
6.165415 0.000491  0.0
6.175375 0.000481  0.0
6.185335 0.000471  0.0
6.195295 0.000461  0.0
6.205255 0.000451  0.0
6.215215 0.000442  0.0
6.225175 0.000432  0.0
6.235135 0.000423  0.0
6.245095 0.000414  0.0
6.255055 0.000406  0.0
6.265015 0.000397  0.0
6.274975 0.000389  0.0
6.284935 0.000381  0.0
6.294895 0.000373  0.0
6.304855 0.000365  0.0
6.314815 0.000357  0.0
6.324775 0.000349  0.0
6.334735 0.000342  0.0
6.344695 0.000335  0.0
6.354655 0.000328  0.0
6.364615 0.000321  0.0
6.374575 0.000314  0.0
6.384535 0.000308  0.0
6.394494 0.000301  0.0
6.404454 0.000295  0.0
6.414414 0.000289  0.0
6.424374 0.000283  0.0
6.434334 0.000277  0.0
6.444294 0.000271  0.0
6.454254 0.000265  0.0
6.464214 0.000260  0.0
6.474174 0.000254  0.0
6.484134 0.000249  0.0
6.494094 0.000244  0.0
6.504054 0.000238  0.0
6.514014 0.000233  0.0
6.523974 0.000229  0.0
6.533934 0.000224  0.0
6.543894 0.000219  0.0
6.553854 0.000214  0.0
6.563814 0.000210  0.0
6.573774 0.000206  0.0
6.583734 0.000201  0.0
6.593694 0.000197  0.0
6.603654 0.000193  0.0
6.613614 0.000189  0.0
6.623574 0.000185  0.0
6.633534 0.000181  0.0
6.643493 0.000177  0.0
6.653453 0.000174  0.0
6.663413 0.000170  0.0
6.673373 0.000166  0.0
6.683333 0.000163  0.0
6.693293 0.000159  0.0
6.703253 0.000156  0.0
6.713213 0.000153  0.0
6.723173 0.000150  0.0
6.733133 0.000147  0.0
6.743093 0.000143  0.0
6.753053 0.000141  0.0
6.763013 0.000138  0.0
6.772973 0.000135  0.0
6.782933 0.000132  0.0
6.792893 0.000129  0.0
6.802853 0.000126  0.0
6.812813 0.000124  0.0
6.822773 0.000121  0.0
6.832733 0.000119  0.0
6.842693 0.000116  0.0
6.852653 0.000114  0.0
6.862613 0.000111  0.0
6.872573 0.000109  0.0
6.882533 0.000107  0.0
6.892492 0.000105  0.0
6.902452 0.000102  0.0
6.912412 0.000100  0.0
6.922372 0.000098  0.0
6.932332 0.000096  0.0
6.942292 0.000094  0.0
6.952252 0.000092  0.0
6.962212 0.000090  0.0
6.972172 0.000088  0.0
6.982132 0.000087  0.0
6.992092 0.000085  0.0
7.002052 0.000083  0.0
7.012012 0.000081  0.0
7.021972 0.000080  0.0
7.031932 0.000078  0.0
7.041892 0.000076  0.0
7.051852 0.000075  0.0
7.061812 0.000073  0.0
7.071772 0.000072  0.0
7.081732 0.000070  0.0
7.091692 0.000069  0.0
7.101652 0.000067  0.0
7.111612 0.000066  0.0
7.121572 0.000065  0.0
7.131532 0.000063  0.0
7.141491 0.000062  0.0
7.151451 0.000061  0.0
7.161411 0.000059  0.0
7.171371 0.000058  0.0
7.181331 0.000057  0.0
7.191291 0.000056  0.0
7.201251 0.000055  0.0
7.211211 0.000054  0.0
7.221171 0.000052  0.0
7.231131 0.000051  0.0
7.241091 0.000050  0.0
7.251051 0.000049  0.0
7.261011 0.000048  0.0
7.270971 0.000047  0.0
7.280931 0.000046  0.0
7.290891 0.000045  0.0
7.300851 0.000044  0.0
7.310811 0.000043  0.0
7.320771 0.000043  0.0
7.330731 0.000042  0.0
7.340691 0.000041  0.0
7.350651 0.000040  0.0
7.360611 0.000039  0.0
7.370571 0.000038  0.0
7.380531 0.000038  0.0
7.390490 0.000037  0.0
7.400450 0.000036  0.0
7.410410 0.000035  0.0
7.420370 0.000035  0.0
7.430330 0.000034  0.0
7.440290 0.000033  0.0
7.450250 0.000033  0.0
7.460210 0.000032  0.0
7.470170 0.000031  0.0
7.480130 0.000031  0.0
7.490090 0.000030  0.0
7.500050 0.000029  0.0
7.510010 0.000029  0.0
7.519970 0.000028  0.0
7.529930 0.000028  0.0
7.539890 0.000027  0.0
7.549850 0.000026  0.0
7.559810 0.000026  0.0
7.569770 0.000025  0.0
7.579730 0.000025  0.0
7.589690 0.000024  0.0
7.599650 0.000024  0.0
7.609610 0.000023  0.0
7.619570 0.000023  0.0
7.629530 0.000022  0.0
7.639489 0.000022  0.0
7.649449 0.000022  0.0
7.659409 0.000021  0.0
7.669369 0.000021  0.0
7.679329 0.000020  0.0
7.689289 0.000020  0.0
7.699249 0.000019  0.0
7.709209 0.000019  0.0
7.719169 0.000019  0.0
7.729129 0.000018  0.0
7.739089 0.000018  0.0
7.749049 0.000018  0.0
7.759009 0.000017  0.0
7.768969 0.000017  0.0
7.778929 0.000017  0.0
7.788889 0.000016  0.0
7.798849 0.000016  0.0
7.808809 0.000016  0.0
7.818769 0.000015  0.0
7.828729 0.000015  0.0
7.838689 0.000015  0.0
7.848649 0.000014  0.0
7.858609 0.000014  0.0
7.868569 0.000014  0.0
7.878529 0.000013  0.0
7.888488 0.000013  0.0
7.898448 0.000013  0.0
7.908408 0.000013  0.0
7.918368 0.000012  0.0
7.928328 0.000012  0.0
7.938288 0.000012  0.0
7.948248 0.000012  0.0
7.958208 0.000011  0.0
7.968168 0.000011  0.0
7.978128 0.000011  0.0
7.988088 0.000011  0.0
7.998048 0.000011  0.0
8.008008 0.000010  0.0
8.017968 0.000010  0.0
8.027928 0.000010  0.0
8.037888 0.000010  0.0
8.047848 0.000010  0.0
8.057808 0.000009  0.0
8.067768 0.000009  0.0
8.077728 0.000009  0.0
8.087688 0.000009  0.0
8.097648 0.000009  0.0
8.107608 0.000008  0.0
8.117568 0.000008  0.0
8.127528 0.000008  0.0
8.137487 0.000008  0.0
8.147447 0.000008  0.0
8.157407 0.000008  0.0
8.167367 0.000008  0.0
8.177327 0.000007  0.0
8.187287 0.000007  0.0
8.197247 0.000007  0.0
8.207207 0.000007  0.0
8.217167 0.000007  0.0
8.227127 0.000007  0.0
8.237087 0.000007  0.0
8.247047 0.000006  0.0
8.257007 0.000006  0.0
8.266967 0.000006  0.0
8.276927 0.000006  0.0
8.286887 0.000006  0.0
8.296847 0.000006  0.0
8.306807 0.000006  0.0
8.316767 0.000006  0.0
8.326727 0.000005  0.0
8.336687 0.000005  0.0
8.346647 0.000005  0.0
8.356607 0.000005  0.0
8.366567 0.000005  0.0
8.376527 0.000005  0.0
8.386486 0.000005  0.0
8.396446 0.000005  0.0
8.406406 0.000005  0.0
8.416366 0.000005  0.0
8.426326 0.000004  0.0
8.436286 0.000004  0.0
8.446246 0.000004  0.0
8.456206 0.000004  0.0
8.466166 0.000004  0.0
8.476126 0.000004  0.0
8.486086 0.000004  0.0
8.496046 0.000004  0.0
8.506006 0.000004  0.0
8.515966 0.000004  0.0
8.525926 0.000004  0.0
8.535886 0.000004  0.0
8.545846 0.000004  0.0
8.555806 0.000003  0.0
8.565766 0.000003  0.0
8.575726 0.000003  0.0
8.585686 0.000003  0.0
